output noise; V / sqrt(Hz) (modelFiles=nom) X,output noise; V / sqrt(Hz) (modelFiles=nom) Y,output noise; V / sqrt(Hz) (modelFiles=spectre.scs:fs) X,output noise; V / sqrt(Hz) (modelFiles=spectre.scs:fs) Y,output noise; V / sqrt(Hz) (modelFiles=spectre.scs:sf) X,output noise; V / sqrt(Hz) (modelFiles=spectre.scs:sf) Y,output noise; V / sqrt(Hz) (modelFiles=spectre.scs:ff) X,output noise; V / sqrt(Hz) (modelFiles=spectre.scs:ff) Y,output noise; V / sqrt(Hz) (modelFiles=spectre.scs:ss) X,output noise; V / sqrt(Hz) (modelFiles=spectre.scs:ss) Y
0.1,0.005575424995058253,0.1,0.005575424995058253,0.1,0.005575424995058253,0.1,0.005972172683238742,0.1,0.004818326695074792
0.1659586907437561,0.004348156778264214,0.1659586907437561,0.004348156778264214,0.1659586907437561,0.004348156778264214,0.1659586907437561,0.004656886457736423,0.1659586907437561,0.003760754399563882
0.2754228703338167,0.003392627302416406,0.2754228703338167,0.003392627302416406,0.2754228703338167,0.003392627302416406,0.2754228703338167,0.003633001949520755,0.2754228703338167,0.002936571704144573
0.4570881896148751,0.002648263869024281,0.4570881896148751,0.002648263869024281,0.4570881896148751,0.002648263869024281,0.4570881896148751,0.002835519757646387,0.4570881896148751,0.002293949227687401
0.7585775750291839,0.002068097673831219,0.7585775750291839,0.002068097673831219,0.7585775750291839,0.002068097673831219,0.7585775750291839,0.002214049329487287,0.7585775750291839,0.001792649568875974
1.258925411794168,0.001615683393445066,1.258925411794168,0.001615683393445066,1.258925411794168,0.001615683393445066,1.258925411794168,0.001729498384074356,1.258925411794168,0.001401414193008269
2.08929613085404,0.001262722393013472,2.08929613085404,0.001262722393013472,2.08929613085404,0.001262722393013472,2.08929613085404,0.001351519146357381,2.08929613085404,0.001095944409682608
3.467368504525318,0.0009872273870926835,3.467368504525318,0.0009872273870926835,3.467368504525318,0.0009872273870926835,3.467368504525318,0.001056536823487861,3.467368504525318,0.0008573401650793988
5.754399373371571,0.0007721040972470313,5.754399373371571,0.0007721040972470313,5.754399373371571,0.0007721040972470313,5.754399373371571,0.0008262263810852145,5.754399373371571,0.0006708919169428214
9.549925860214364,0.000604054316244752,9.549925860214364,0.000604054316244752,9.549925860214364,0.000604054316244752,9.549925860214364,0.0006463347687715423,9.549925860214364,0.0005251450380279391
15.84893192461114,0.0004727269009836571,15.84893192461114,0.0004727269009836571,15.84893192461114,0.0004727269009836571,15.84893192461114,0.0005057695553848596,15.84893192461114,0.0004111747395394287
26.30267991895383,0.0003700601676444435,26.30267991895383,0.0003700601676444435,26.30267991895383,0.0003700601676444435,26.30267991895383,0.000395893183764298,26.30267991895383,0.0003220237430272531
43.65158322401662,0.0002897721676435858,43.65158322401662,0.0002897721676435858,43.65158322401662,0.0002897721676435858,43.65158322401662,0.0003099760525274433,43.65158322401662,0.0002522658672636631
72.44359600749904,0.0002269653080579549,72.44359600749904,0.0002269653080579549,72.44359600749904,0.0002269653080579549,72.44359600749904,0.0002427723766906468,72.44359600749904,0.0001976671068605679
120.2264434617413,0.0001778194522540736,120.2264434617413,0.0001778194522540736,120.2264434617413,0.0001778194522540736,120.2264434617413,0.000190191032203384,120.2264434617413,0.000154922251041236
199.526231496888,0.0001393535347455842,199.526231496888,0.0001393535347455842,199.526231496888,0.0001393535347455842,199.526231496888,0.0001490399325246581,199.526231496888,0.0001214500743106051
331.1311214825913,0.0001092402596776547,331.1311214825913,0.0001092402596776547,331.1311214825913,0.0001092402596776547,331.1311214825913,0.00011682736057954,331.1311214825913,9.52339696693533e-05
549.5408738576248,8.566193616808601e-05,549.5408738576248,8.566193616808601e-05,549.5408738576248,8.566193616808601e-05,549.5408738576248,9.160742126843335e-05,549.5408738576248,7.46978513644239e-05
912.0108393559101,6.719816790951595e-05,912.0108393559101,6.719816790951595e-05,912.0108393559101,6.719816790951595e-05,912.0108393559101,7.185963595746482e-05,912.0108393559101,5.860942530293485e-05
1513.561248436209,5.273812281683488e-05,1513.561248436209,5.273812281683488e-05,1513.561248436209,5.273812281683488e-05,1513.561248436209,5.639484320664061e-05,1513.561248436209,4.600465524959244e-05
2511.886431509581,4.141155750387263e-05,2511.886431509581,4.141155750387263e-05,2511.886431509581,4.141155750387263e-05,2511.886431509581,4.428109448714718e-05,2511.886431509581,3.612853668358937e-05
4168.693834703356,3.253367832336323e-05,4168.693834703356,3.253367832336323e-05,4168.693834703356,3.253367832336323e-05,4168.693834703356,3.478414352117286e-05,4168.693834703356,2.838816831856381e-05
6918.309709189368,2.555922215389667e-05,6918.309709189368,2.555922215389667e-05,6918.309709189368,2.555922215389667e-05,6918.309709189368,2.731734820773253e-05,6918.309709189368,2.231455863334875e-05
11481.53621496883,2.004090735709842e-05,11481.53621496883,2.004090735709842e-05,11481.53621496883,2.004090735709842e-05,11481.53621496883,2.139554696556128e-05,11481.53621496883,1.752956975246019e-05
19054.60717963248,1.558849916423605e-05,19054.60717963248,1.558849916423605e-05,19054.60717963248,1.558849916423605e-05,19054.60717963248,1.658975358258319e-05,19054.60717963248,1.371430371108994e-05
31622.77660168381,1.183832465096911e-05,31622.77660168381,1.183832465096911e-05,31622.77660168381,1.183832465096911e-05,31622.77660168381,1.250030872855542e-05,31622.77660168381,1.057891720021254e-05
52480.74602497728,8.497337785685729e-06,52480.74602497728,8.497337785685729e-06,52480.74602497728,8.497337785685729e-06,52480.74602497728,8.834774139086284e-06,52480.74602497728,7.857595713451952e-06
87096.35899560811,5.542073621392459e-06,87096.35899560811,5.542073621392459e-06,87096.35899560811,5.542073621392459e-06,87096.35899560811,5.64399710463696e-06,87096.35899560811,5.403915497737677e-06
144543.9770745928,3.261374190923438e-06,144543.9770745928,3.261374190923438e-06,144543.9770745928,3.261374190923438e-06,144543.9770745928,3.26608167521568e-06,144543.9770745928,3.34450191209085e-06
239883.2919019492,1.801326919994432e-06,239883.2919019492,1.801326919994432e-06,239883.2919019492,1.801326919994432e-06,239883.2919019492,1.789385282585897e-06,239883.2919019492,1.898396294919813e-06
398107.1705534975,9.782944596730853e-07,398107.1705534975,9.782944596730853e-07,398107.1705534975,9.782944596730853e-07,398107.1705534975,9.700150004659897e-07,398107.1705534975,1.037363121638886e-06
660693.4480075964,5.368278174151304e-07,660693.4480075964,5.368278174151304e-07,660693.4480075964,5.368278174151304e-07,660693.4480075964,5.328080797978116e-07,660693.4480075964,5.666009206835144e-07
1096478.196143186,3.00557811757117e-07,1096478.196143186,3.00557811757117e-07,1096478.196143186,3.00557811757117e-07,1096478.196143186,2.988490522531297e-07,1096478.196143186,3.146820000590312e-07
1819700.858609985,1.717534762584344e-07,1819700.858609985,1.717534762584344e-07,1819700.858609985,1.717534762584344e-07,1819700.858609985,1.710779864018695e-07,1819700.858609985,1.784167161903934e-07
3019951.720402018,9.984061136841309e-08,3019951.720402018,9.984061136841309e-08,3019951.720402018,9.984061136841309e-08,3019951.720402018,9.958941098951159e-08,3019951.720402018,1.030553602541777e-07
5011872.336272726,5.881319001231686e-08,5011872.336272726,5.881319001231686e-08,5011872.336272726,5.881319001231686e-08,5011872.336272726,5.872935642755653e-08,5011872.336272726,6.04173136278566e-08
8317637.711026715,3.502480057376181e-08,8317637.711026715,3.502480057376181e-08,8317637.711026715,3.502480057376181e-08,8317637.711026715,3.500782316847004e-08,8317637.711026715,3.584760755881166e-08
13803842.64602886,2.109870509032569e-08,13803842.64602886,2.109870509032569e-08,13803842.64602886,2.109870509032569e-08,13803842.64602886,2.111285575181466e-08,13803842.64602886,2.151852355284187e-08
22908676.52767774,1.291157086673852e-08,22908676.52767774,1.291157086673852e-08,22908676.52767774,1.291157086673852e-08,22908676.52767774,1.294698519585055e-08,22908676.52767774,1.31051625782226e-08
38018939.63205615,8.036051833205887e-09,38018939.63205615,8.036051833205887e-09,38018939.63205615,8.036051833205887e-09,38018939.63205615,8.08996790872973e-09,38018939.63205615,8.09301686035974e-09
63095734.44801937,4.936720045529012e-09,63095734.44801937,4.936720045529012e-09,63095734.44801937,4.936720045529012e-09,63095734.44801937,4.996839201431991e-09,63095734.44801937,4.9212890556515e-09
104712854.80509,2.777077872345414e-09,104712854.80509,2.777077872345414e-09,104712854.80509,2.777077872345414e-09,104712854.80509,2.819122114398006e-09,104712854.80509,2.747670137602532e-09
173780082.8749377,1.370091262421237e-09,173780082.8749377,1.370091262421237e-09,173780082.8749377,1.370091262421237e-09,173780082.8749377,1.38845100400518e-09,173780082.8749377,1.353019192479996e-09
288403150.3126608,6.32663727517608e-10,288403150.3126608,6.32663727517608e-10,288403150.3126608,6.32663727517608e-10,288403150.3126608,6.391697162886197e-10,288403150.3126608,6.257003977714229e-10
478630092.3226386,3.067478169284349e-10,478630092.3226386,3.067478169284349e-10,478630092.3226386,3.067478169284349e-10,478630092.3226386,3.092421460898906e-10,478630092.3226386,3.040607249737229e-10
794328234.724282,1.638671097957809e-10,794328234.724282,1.638671097957809e-10,794328234.724282,1.638671097957809e-10,794328234.724282,1.650164901083292e-10,794328234.724282,1.626549794343947e-10
1318256738.556408,9.405768710127579e-11,1318256738.556408,9.405768710127579e-11,1318256738.556408,9.405768710127579e-11,1318256738.556408,9.466678751155043e-11,1318256738.556408,9.334796597098563e-11
2187761623.949554,5.599063693321297e-11,2187761623.949554,5.599063693321297e-11,2187761623.949554,5.599063693321297e-11,2187761623.949554,5.640034546680939e-11,2187761623.949554,5.542731489979596e-11
3630780547.701016,3.377509397012025e-11,3630780547.701016,3.377509397012025e-11,3630780547.701016,3.377509397012025e-11,3630780547.701016,3.413409099937223e-11,3630780547.701016,3.331044098042329e-11
6025595860.743582,2.041068417053111e-11,6025595860.743582,2.041068417053111e-11,6025595860.743582,2.041068417053111e-11,6025595860.743582,2.070896157595522e-11,6025595860.743582,2.00779793445237e-11
10000000000,1.231994347463588e-11,10000000000,1.231994347463588e-11,10000000000,1.231994347463588e-11,10000000000,1.253139261375421e-11,10000000000,1.210514467852668e-11
